energy,7bcea01794773fc317d8fb5a8ea7c275,4c32a0a4f1938ddc47bf6ad0b748658e
-10.6762134838703,5.237023228503163e-07,7.029955389023893e-230
-10.665343459573169,7.28296292047895e-07,9.554335457540474e-229
-10.654473435276039,1.0091746804359334e-06,1.290164366192967e-227
-10.643603410978908,1.3933468530433258e-06,1.7309568454268933e-226
-10.632733386681778,1.916844065376109e-06,2.3074063273966028e-225
-10.621863362384648,2.6275378236213418e-06,3.056036652120097e-224
-10.61099333808752,3.5887715765354723e-06,4.0215148678913265e-223
-10.60012331379039,4.884018552945286e-06,5.257961956436383e-222
-10.589253289493259,6.622827474531559e-06,6.830332427722572e-221
-10.578383265196129,8.948376050770389e-06,8.815823431430953e-220
-10.567513240898998,1.2047020798724727e-05,1.130526029980745e-218
-10.556643216601868,1.6160312019086486e-05,1.4404390616467335e-217
-10.545773192304738,2.1600035836632598e-05,1.823500364461112e-216
-10.534903168007608,2.8766952080833038e-05,2.2935777117684618e-215
-10.524033143710477,3.8174018218283995e-05,2.866274008759965e-214
-10.513163119413347,5.047502599144726e-05,3.5589230028597005e-213
-10.502293095116217,6.64997288310226e-05,4.3905216144973484e-212
-10.491423070819089,8.729670382124705e-05,5.381586033870549e-211
-10.480553046521958,0.00011418537052287794,6.553919404366047e-210
-10.469683022224828,0.00014881877779753167,7.930280446129702e-209
-10.458812997927698,0.0001932589652008829,9.533944868645937e-208
-10.447942973630568,0.0002500669023406819,1.1388154939369417e-206
-10.437072949333437,0.00032240920097676904,1.3515457118467009e-205
-10.426202925036307,0.00041418397184225125,1.5936933167346912e-204
-10.415332900739177,0.0005301683503977612,1.8671336439035199e-203
-10.404462876442047,0.0006761903300149108,2.1734151923084802e-202
-10.393592852144916,0.0008593276021884275,2.5136605722392243e-201
-10.382722827847786,0.0010881360938436084,2.88846565830924e-200
-10.371852803550658,0.001372910792102436,3.2978008420284916e-199
-10.360982779253527,0.0017259812356753342,3.7409187984855894e-198
-10.350112754956397,0.002162043706696699,4.2162735398877265e-197
-10.339242730659267,0.0026985316539798548,4.721455678222124e-196
-10.328372706362137,0.0033560251951446347,5.25314872058029e-195
-10.317502682065006,0.004158699658930522,5.807110845832968e-194
-10.306632657767876,0.005134812020830665,6.378185947301684e-193
-10.295762633470746,0.006317222739580286,6.96034677780443e-192
-10.284892609173616,0.00774394890932987,7.546771825813982e-191
-10.274022584876485,0.009458742800387932,8.12995612932182e-190
-10.263152560579355,0.011511687777532913,8.701854661625258e-189
-10.252282536282227,0.013959801277722353,9.254055280988236e-188
-10.241412511985097,0.01686763203039366,9.777976616407487e-187
-10.230542487687966,0.020307836060024537,1.0265084763168175e-185
-10.219672463390836,0.024361713284847517,1.0707121382823198e-184
-10.208802439093706,0.029119683796950128,1.1096334833006466e-183
-10.197932414796576,0.03468168027384459,1.1425705369262917e-182
-10.187062390499445,0.04115743054259824,1.1689155318532808e-181
-10.176192366202315,0.04866660222225906,1.1881735450844757e-180
-10.165322341905185,0.05733877974831095,1.1999779571567466e-179
-10.154452317608055,0.06731324308261913,1.2041020590107853e-178
-10.143582293310924,0.07873851718606814,1.200466293180989e-177
-10.132712269013796,0.09177166202924951,1.1891408061986653e-176
-10.121842244716666,0.10657727468086184,1.1703431978128886e-175
-10.110972220419535,0.12332617796926564,1.144431567914858e-174
-10.100102196122405,0.1421937744609339,1.1118931715540284e-173
-10.089232171825275,0.16335805010792107,1.0733291841297704e-172
-10.078362147528145,0.18699721891157925,1.02943624205582e-171
-10.067492123231014,0.21328700830847586,9.80985550130858e-171
-10.056622098933884,0.242397594627776,9.288004293105541e-170
-10.045752074636754,0.27449020875663327,8.737332142582543e-169
-10.034882050339624,0.3097134438759738,8.166423987008568e-168
-10.024012026042493,0.348199309522441,7.583708709301518e-167
-10.013142001745365,0.3900590889586321,6.99725987104496e-166
-10.002271977448235,0.4353790695003974,6.414621037900718e-165
-9.991401953151104,0.4842162276142501,5.842660424233218e-164
-9.980531928853974,0.536593961780674,5.287457968830188e-163
-9.969661904556844,0.5924979758174647,4.754226309832875e-162
-9.958791880259714,0.6518724230662564,4.247265547726163e-161
-9.947921855962583,0.7146164270754259,3.769950251546366e-160
-9.937051831665453,0.7805810967137474,3.3247459407491095e-159
-9.926181807368323,0.8495671526332516,2.913251309631907e-158
-9.915311783071193,0.9213232773631267,2.5362617789001187e-157
-9.904441758774063,0.9955452928612774,2.1938495660728948e-156
-9.893571734476934,1.07187625700268,1.8854553510178e-155
-9.882701710179804,1.1499075543093717,1.6099867478145715e-154
-9.871831685882674,1.2291810364394022,1.3659191405320958e-153
-9.860961661585543,1.3091922449193243,1.1513949520332572e-152
-9.850091637288413,1.3893947228424242,9.643180414881324e-152
-9.839221612991283,1.4692053944226793,8.024406181620727e-151
-9.828351588694153,1.548010962174085,6.63440769752095e-150
-9.817481564397022,1.625175241961209,5.449893925669291e-149
-9.806611540099892,1.7000473271960939,4.4480594523381975e-148
-9.795741515802762,1.7719704460334722,3.6070300297909024e-147
-9.784871491505632,1.840291350535234,2.9062005013075715e-146
-9.774001467208503,1.9043700553903944,2.326473068404163e-145
-9.763131442911373,1.9635897267619131,1.8504064187472136e-144
-9.752261418614243,2.017366509939569,1.4622878240856717e-143
-9.741391394317112,2.0651590783074103,1.148141042943998e-142
-9.730521370019982,2.1064776860957344,8.95682854938695e-142
-9.719651345722852,2.140892513685204,6.942404604132141e-141
-9.708781321425722,2.1680411068424172,5.346409517830009e-140
-9.697911297128591,2.1876347299412235,4.090827459244004e-139
-9.687041272831461,2.1994634774854465,3.109973900443003e-138
-9.676171248534331,2.2034000174080455,2.3490862726418123e-137
-9.6653012242372,2.1994018728026905,1.7629412121307525e-136
-9.65443119994007,2.1875121849137287,1.3145385734474783e-135
-9.643561175642942,2.1678589382202915,9.738800721775849e-135
-9.632691151345812,2.1406526670781374,7.168598628342855e-134
-9.621821127048682,2.106182701383029,5.242756544925335e-133
-9.610951102751551,2.064812044870393,3.809620877439077e-132
-9.600081078454421,2.016971012819628,2.7504291730549174e-131
-9.58921105415729,1.9631497850558113,1.9729487965720116e-130
-9.57834102986016,1.9038900543619475,1.4061375419039203e-129
-9.56747100556303,1.8397759690442737,9.957181725094841e-129
-9.5566009812659,1.7714245809565399,7.005541401157964e-128
-9.545730956968772,1.6994760165371667,4.897152353028236e-127
-9.534860932671641,1.6245835883261992,3.4012782933196016e-126
-9.523990908374511,1.5474040582118291,2.347131166452123e-125
-9.51312088407738,1.468588251721639,1.6092710322599413e-124
-9.50225085978025,1.3887722056220562,1.0962703496566026e-123
-9.49138083548312,1.30856900967397,7.419980827334945e-123
-9.48051081118599,1.228561478487959,4.989816086889597e-122
-9.46964078688886,1.149295761983568,3.333979578112116e-121
-9.45877076259173,1.0712759739781854,2.2132882196318856e-120
-9.4479007382946,0.9949598889068356,1.4598547603975218e-119
-9.43703071399747,0.9207557275606255,9.567048354559869e-119
-9.426160689700339,0.849020024912348,6.22935280716931e-118
-9.415290665403209,0.7800565473546385,4.029995196349975e-117
-9.40442064110608,0.7141162036663266,2.590375771152853e-116
-9.39355061680895,0.6513978742621604,1.6543128792096255e-115
-9.38268059251182,0.5920500671360287,1.0497096099220577e-114
-9.37181056821469,0.5361732965901469,6.617856352641303e-114
-9.36094054391756,0.48382307241796324,4.14535892539427e-113
-9.350070519620429,0.4350133826007369,2.5799042283389026e-112
-9.339200495323299,0.38972055158897845,1.5952974444616402e-111
-9.328330471026169,0.34788735856545167,9.80113554683322e-111
-9.317460446729038,0.30942730533759,5.982845144610668e-110
-9.30659042243191,0.2742289312334377,3.628572203939951e-109
-9.29572039813478,0.24216008208727688,2.1865550582002293e-108
-9.28485037383765,0.21307205159324488,1.3091267778191894e-107
-9.273980349540519,0.18680352547520562,7.787528263562441e-107
-9.263110325243389,0.16318427159002777,4.602716292168257e-106
-9.252240300946259,0.1420385318065324,2.7028716132825497e-105
-9.241370276649128,0.12318808389181972,1.5770057211168847e-104
-9.230500252351998,0.10645495335618625,9.141927258791431e-104
-9.219630228054868,0.0916637659869396,5.265491239256442e-103
-9.208760203757738,0.07864374143520396,3.0132604296368063e-102
-9.197890179460607,0.06723033656817995,1.7132908009963835e-101
-9.187020155163477,0.057266554283630054,9.678813876131209e-101
-9.176150130866347,0.04860393908108365,5.432626334596389e-100
-9.165280106569218,0.0411032849221296,3.029661941476893e-99
-9.154410082272088,0.03463508385829508,1.6787079567643584e-98
-9.143540057974958,0.02907974566052895,9.241719165684021e-98
-9.132670033677828,0.024327619374678304,5.055068281220945e-97
-9.121800009380697,0.02027884749452932,2.747248379745255e-96
-9.110929985083567,0.016843082438266675,1.4834245645803862e-95
-9.100059960786437,0.013939093387972699,7.958471173758052e-95
-9.089189936489307,0.011494289453311653,4.2421934539689277e-94
-9.078319912192176,0.009444182689478517,2.2467147272342586e-93
-9.067449887895048,0.007731811863195982,1.1822301627229605e-92
-9.056579863597918,0.006307145131564459,6.180915119145585e-92
-9.045709839300788,0.0051264770731434695,3.210703225998129e-91
-9.034839815003657,0.004151832868021206,1.6570827254405735e-90
-9.023969790706527,0.0033503899263304646,8.49737640067415e-90
-9.013099766409397,0.002693924959122868,4.3293446777153585e-89
-9.002229742112267,0.002158292403454026,2.1915738560851063e-88
-8.991359717815136,0.001722938273508753,1.1022667306084194e-87
-8.980489693518006,0.0013704519188316633,5.508253620959026e-87
-8.969619669220876,0.0010861568270175267,2.734876997746753e-86
-8.958749644923746,0.0008577405018295036,1.3491440089747362e-85
-8.947879620626615,0.0006749225632257341,6.61264884186858e-85
-8.937009596329485,0.0005291595337449366,3.2202475066213963e-84
-8.926139572032357,0.0004133842741716772,1.5581156346989583e-83
-8.915269547735226,0.0003217776871861291,7.490430159243027e-83
-8.904399523438096,0.0002495700974591215,3.5777539781437076e-82
-8.893529499140966,0.000192869617730396,1.6978949956317965e-81
-8.882659474843836,0.0001485148014972896,8.005856917477892e-81
-8.871789450546705,0.00011394894452194228,3.75060614199074e-80
-8.860919426249575,8.711351200002601e-05,1.7457889394826276e-79
-8.850049401952445,6.635832070799169e-05,8.0738124278474e-79
-8.839179377655315,5.0366282796795474e-05,3.709900092476144e-78
-8.828309353358186,3.809070935470557e-05,1.6937231111835235e-77
-8.817439329061056,2.8703368703501703e-05,7.682795152745514e-77
-8.806569304763926,2.155168978294263e-05,3.462523539083038e-76
-8.795699280466795,1.612368974976681e-05,1.5504681741552246e-75
-8.784829256169665,1.2019383351636025e-05,6.898102103284785e-75
-8.773959231872535,8.927597241772704e-06,3.0492499218578123e-74
-8.763089207575405,6.607263698236987e-06,1.3392235111096735e-73
-8.752219183278275,4.872404537399405e-06,5.843993840944065e-73
-8.741349158981144,3.5801373316822535e-06,2.533745992167362e-72
-8.730479134684014,2.621142798690148e-06,1.091473109865735e-71
-8.719609110386884,1.9121252021475248e-06,4.6715354333970625e-71
-8.708739086089754,1.3898777987155132e-06,1.986565526134371e-70
-8.697869061792623,1.0066339146697526e-06,8.393493970144026e-70
-8.686999037495495,7.264423370608621e-07,3.523540856164443e-69
-8.676129013198365,5.223545523626516e-07,1.4696451343606737e-68
-8.665258988901234,3.7425212014091814e-07,6.090350561751749e-68
-8.654388964604104,2.671762210821096e-07,2.5076605191690604e-67
-8.643518940306974,1.9004917332953105e-07,1.0258688294227688e-66
-8.632648916009844,1.3470037819606873e-07,4.1697648749406277e-66
-8.621778891712713,9.512754604106851e-08,1.6839451438098351e-65
-8.610908867415583,6.693887673571743e-08,6.756798283231403e-65
-8.600038843118453,4.6933743502562014e-08,2.693708572449102e-64
-8.589168818821324,3.2788882765627706e-08,1.0669815352127945e-63
-8.578298794524194,2.2824574530741922e-08,4.1991350255750795e-63
-8.567428770227064,1.5831184514160315e-08,1.641948066725853e-62
-8.556558745929934,1.094104436288559e-08,6.379044535880563e-62
-8.545688721632803,7.534228640893733e-09,2.462342678241433e-61
-8.534818697335673,5.169558573892334e-09,9.44360887212199e-61
-8.523948673038543,3.534294815819349e-09,3.598521744028132e-60
-8.513078648741413,2.4076133077995033e-09,1.3624071423073886e-59
-8.502208624444282,1.6342005222843615e-09,5.124911060603335e-59
-8.491338600147152,1.1052451123962306e-09,1.915412841883845e-58
-8.480468575850022,7.448117329613922e-10,7.112709926251719e-58
-8.469598551552892,5.001140597945978e-10,2.624245377220626e-57
-8.458728527255762,3.3460025460856724e-10,9.61989706321978e-57
-8.447858502958631,2.230581615279729e-10,3.503749507828909e-56
-8.436988478661503,1.48164656309491e-10,1.2679213514880278e-55
-8.426118454364373,9.80631333374615e-11,4.558775667918003e-55
-8.415248430067242,6.466980657410152e-11,1.628548769003969e-54
-8.404378405770112,4.2494429829060184e-11,5.780294373637475e-54
-8.393508381472982,2.7822560740554664e-11,2.0384299178670165e-53
-8.382638357175852,1.8150844671902432e-11,7.142302729433839e-53
-8.371768332878721,1.1798620425519687e-11,2.4864364511024418e-52
-8.360898308581591,7.641880942729292e-12,8.600290371296338e-52
-8.350028284284463,4.931782931650591e-12,2.955598965874459e-51
-8.339158259987332,3.1713362185719657e-12,1.0091937169837253e-50
-8.328288235690202,2.0319605408692642e-12,3.423735538568376e-50
-8.317418211393072,1.29724767460034e-12,1.1540444172535078e-49
-8.306548187095942,8.252113259733117e-13,3.864928630677313e-49
-8.295678162798811,5.230486764157233e-13,1.2860476901432007e-48
-8.284808138501681,3.303343095236172e-13,4.251765556956311e-48
-8.273938114204551,2.078738727729622e-13,1.3966197714693785e-47
-8.26306808990742,1.3034091923030512e-13,4.558098469538477e-47
-8.25219806561029,8.143222478096614e-14,1.478038888974697e-46
-8.24132804131316,5.069282207089011e-14,4.761948120848811e-46
-8.23045801701603,3.1443529293150676e-14,1.5243338681592486e-45
-8.2195879927189,1.943348779039942e-14,4.848106807887911e-45
-8.20871796842177,1.1967539391050505e-14,1.5320075301939224e-44
-8.197847944124641,7.343339848453042e-15,4.810013126042773e-44
-8.18697791982751,4.489697059552807e-15,1.5004732722843528e-43
-8.17610789553038,2.7351118861028197e-15,4.6505777216715695e-43
-8.16523787123325,1.6602282669473825e-15,1.4321291696466411e-42
-8.15436784693612,1.004142061440944e-15,4.381815779872912e-42
-8.14349782263899,6.051418139585833e-16,1.3320566046373136e-41
-8.13262779834186,3.6337397075030326e-16,4.0233506641340365e-41
-8.12175777404473,2.1741280280679706e-16,1.2073960001011075e-40
-8.1108877497476,1.2961374626056437e-16,3.600047410025689e-40
-8.10001772545047,7.69930741136712e-17,1.0665061109607188e-39
-8.08914770115334,4.557082649118145e-17,3.139172036678167e-39
-8.07827767685621,2.6875515212753428e-17,9.180440635783036e-39
-8.06740765255908,1.5792880174354486e-17,2.667525482801577e-38
-8.05653762826195,9.246993028959527e-18,7.701055759840077e-38
-8.04566760396482,5.394787822312998e-18,2.208963804372501e-37
-8.03479757966769,3.1360491101603186e-18,6.295403513952493e-37
-8.023927555370559,1.8164606322466524e-18,1.7826052667725678e-36
-8.013057531073429,1.0483439014172276e-18,5.0151443672294413e-36
-8.002187506776298,6.028596326208853e-19,1.4018719107685806e-35
-7.991317482479169,3.4543257045677883e-19,3.89340757290357e-35
-7.980447458182039,1.9721730161650373e-19,1.0743555838534776e-34
-7.969577433884909,1.1219187048245159e-19,2.9455260109889463e-34
-7.958707409587779,6.359345393717212e-20,8.02369330055411e-34
-7.947837385290649,3.5916837213159075e-20,2.1716129261031614e-33
-7.936967360993519,2.0212424354156606e-20,5.839654553544238e-33
-7.9260973366963885,1.1333743432815791e-20,1.560229685881179e-32
-7.915227312399258,6.332322061310112e-21,4.1417755236593745e-32
-7.904357288102128,3.525228406727935e-21,1.0923988102128666e-31
-7.893487263804998,1.9554475676294428e-21,2.862678131556952e-31
-7.8826172395078675,1.0807860692360637e-21,7.453503556446928e-31
-7.871747215210738,5.952068891396182e-22,1.9281687787151704e-30
-7.860877190913608,3.2661100092461783e-22,4.95594263188015e-30
-7.850007166616478,1.785781486267264e-22,1.2656223493545462e-29
-7.839137142319348,9.728826806454212e-23,3.2112834486045885e-29
-7.828267118022218,5.281135084607203e-23,8.09561389578998e-29
-7.817397093725088,2.856463827762121e-23,2.027764773529287e-28
-7.806527069427958,1.539447311978784e-23,5.0464038377928415e-28
-7.795657045130827,8.266764746236513e-24,1.2477945096883634e-27
-7.784787020833697,4.423244805371572e-24,3.065496182221534e-27
-7.773916996536567,2.3582021004113845e-24,7.48264479472508e-27
-7.763046972239437,1.252724917334753e-24,1.814705352400533e-26
-7.752176947942307,6.630786706799947e-25,4.3727409692749713e-26
-7.741306923645177,3.4971080325892803e-25,1.046882701458805e-25
-7.730436899348047,1.837755315711286e-25,2.4902269935519364e-25
-7.719566875050917,9.622789259980339e-26,5.88540684514762e-25
-7.708696850753787,5.020522413709054e-26,1.3820084050380765e-24
-7.697826826456657,2.609945833097737e-26,3.2243451103687112e-24
-7.686956802159527,1.3519129436719564e-26,7.474273663234906e-24
-7.6760867778623965,6.977512232247904e-27,1.721444841232262e-23
-7.665216753565266,3.588286698366628e-27,3.939252948351733e-23
-7.654346729268136,1.8386891450420783e-27,8.956354328281862e-23
-7.643476704971006,9.387806673323147e-28,2.0232302296914374e-22
-7.632606680673876,4.775893250448528e-28,4.541046872423388e-22
-7.621736656376746,2.420916067603618e-28,1.0126591817363525e-21
-7.610866632079616,1.2227551566126218e-28,2.243712800501505e-21
-7.5999966077824865,6.153666013228864e-29,4.939328004475603e-21
-7.589126583485356,3.0857659906474063e-29,1.0803515751511035e-20
-7.578256559188226,1.541795249679319e-29,2.3477886160493256e-20
-7.567386534891096,7.675825032646906e-30,5.069317774838561e-20
-7.556516510593966,3.8076592684650635e-30,1.0875185679410433e-19
-7.545646486296835,1.882026517091797e-30,2.3180376516708407e-19
-7.534776461999705,9.268896793216164e-31,4.909089294356347e-19
-7.523906437702575,4.548466526548372e-31,1.0329469519745701e-18
-7.5130364134054455,2.224009345159216e-31,2.1594927276246395e-18
-7.502166389108315,1.0835347919216427e-31,4.485616224591058e-18
-7.491296364811185,5.259975997232408e-32,9.257401989976493e-18
-7.480426340514056,2.5442472400298064e-32,1.898247219206557e-17
-7.469556316216925,1.2262231475462745e-32,3.867346300763684e-17
-7.458686291919795,5.8886312099653295e-33,7.828345659898534e-17
-7.447816267622665,2.81769415460209e-33,1.57443075749268e-16
-7.436946243325535,1.3434081971679564e-33,3.1461090923856935e-16
-7.426076219028404,6.3819997837938045e-34,6.246268245710366e-16
-7.415206194731274,3.020926957401571e-34,1.2321515422736816e-15
-7.404336170434144,1.4248144549354044e-34,2.4149284039375214e-15
-7.393466146137015,6.695932215686226e-35,4.702632435649892e-15
-7.382596121839884,3.13543955563546e-35,9.098597453856623e-15
-7.371726097542754,1.4629196238416588e-35,1.7490591949842195e-14
-7.360856073245625,6.801068462084793e-36,3.3406517578950587e-14
-7.3499860489484945,3.1504201455639635e-36,6.339493250502614e-14
-7.339116024651364,1.4541005995620839e-36,1.195293403647749e-13
-7.328246000354234,6.687365793340592e-37,2.2391910136951938e-13
-7.317375976057104,3.0644345741568592e-37,4.167776322090277e-13
-7.3065059517599735,1.3992015451117885e-37,7.707513679954081e-13
-7.295635927462843,6.365680641884371e-38,1.4161877914791487e-12
-7.284765903165713,2.8856527338824594e-38,2.5853778803119976e-12
-7.273895878868584,1.3034006500878437e-38,4.689470974963327e-12
-7.263025854571453,5.866059299805668e-39,8.451237688662316e-12
