energy,7bcea01794773fc317d8fb5a8ea7c275,4c32a0a4f1938ddc47bf6ad0b748658e
-10.6762134838703,5.8038356217664976e-09,0.0
-10.665343459573169,1.2215959663520247e-08,0.0
-10.65447343527604,2.5150056389530694e-08,0.0
-10.643603410978908,5.065049149136133e-08,0.0
-10.632733386681778,9.979315598183774e-08,0.0
-10.621863362384648,1.923687888005874e-07,0.0
-10.61099333808752,3.6285713336566077e-07,0.0
-10.60012331379039,6.698249482738434e-07,0.0
-10.58925328949326,1.2102551007332593e-06,0.0
-10.578383265196129,2.140705340677436e-06,0.0
-10.567513240898998,3.7075410592714855e-06,0.0
-10.556643216601868,6.288695711648988e-06,0.0
-10.545773192304738,1.0449375642018821e-05,0.0
-10.534903168007608,1.701373411017112e-05,0.0
-10.524033143710476,2.7153718090194203e-05,0.0
-10.513163119413347,4.249504189362774e-05,0.0
-10.502293095116215,6.523867794460603e-05,0.0
-10.491423070819089,9.82946224921315e-05,0.0
-10.480553046521958,0.00014542334995575255,0.0
-10.469683022224828,0.00021137971360552546,0.0
-10.458812997927698,0.00030205440687339316,0.0
-10.447942973630568,0.0004246095763845943,0.0
-10.437072949333436,0.0005876075457796856,0.0
-10.426202925036309,0.0008011342644945004,0.0
-10.415332900739177,0.0010769211532539987,0.0
-10.404462876442048,0.0014284695576050606,0.0
-10.393592852144916,0.0018711804401203762,0.0
-10.382722827847786,0.002422488315354305,0.0
-10.371852803550658,0.003101993724114484,0.0
-10.360982779253527,0.003931584536309581,0.0
-10.350112754956395,0.004935535228766486,0.0
-10.339242730659269,0.006140576818872143,0.0
-10.328372706362137,0.007575938979868734,0.0
-10.317502682065006,0.009273378863411027,0.0
-10.306632657767876,0.011267225291395387,0.0
-10.295762633470746,0.013594478014774796,0.0
-10.284892609173616,0.01629500550634147,0.0
-10.274022584876484,0.01941187873754913,0.0
-10.263152560579355,0.022991862995256535,0.0
-10.252282536282229,0.027086068750531062,0.0
-10.241412511985097,0.031750742069827746,0.0
-10.230542487687966,0.03704816159961137,0.0
-10.219672463390836,0.043047606974302856,0.0
-10.208802439093706,0.049826372141783946,0.0
-10.197932414796576,0.05747081050745587,0.0
-10.187062390499444,0.06607740646428564,0.0
-10.176192366202317,0.07575385817109972,0.0
-10.165322341905185,0.08662012123703576,0.0
-10.154452317608056,0.09880930209654622,0.0
-10.143582293310924,0.11246821364867643,0.0
-10.132712269013796,0.12775733430628194,0.0
-10.121842244716666,0.14484987051216902,0.0
-10.110972220419535,0.1639296358902397,0.0
-10.100102196122403,0.18518754175905236,0.0
-10.089232171825277,0.20881664220079071,0.0
-10.078362147528145,0.23500587273693127,0.0
-10.067492123231014,0.26393283035762355,0.0
-10.056622098933884,0.29575612215973857,0.0
-10.045752074636754,0.3306079208325644,0.0
-10.034882050339624,0.3685873808499544,0.0
-10.024012026042492,0.40975548168667136,0.0
-10.013142001745363,0.4541316864387759,0.0
-10.002271977448236,0.5016925655830554,0.0
-9.991401953151104,0.5523722756484509,0.0
-9.980531928853974,0.6060645420896775,0.0
-9.969661904556844,0.6626256099418758,0.0
-9.958791880259714,0.7218775206012439,0.0
-9.947921855962583,0.7836110631748188,0.0
-9.937051831665451,0.8475878385964617,0.0
-9.926181807368325,0.9135410582521118,0.0
-9.915311783071193,0.9811749595052085,0.0
-9.904441758774064,1.0501630294163264,0.0
-9.893571734476934,1.1201455436112588,0.0
-9.882701710179804,1.1907271978612612,0.0
-9.871831685882674,1.2614757800512117,0.0
-9.860961661585543,1.3319228515062789,0.0
-9.850091637288411,1.4015672507481398,0.0
-9.839221612991285,1.4698819023672685,0.0
-9.828351588694153,1.5363239481525437,0.0
-9.817481564397022,1.6003476898405087,0.0
-9.806611540099892,1.661419337241317,0.0
-9.795741515802762,1.7190321888366917,0.0
-9.784871491505632,1.7727207117601358,0.0
-9.774001467208503,1.8220720740422294,0.0
-9.763131442911371,1.8667340054319415,0.0
-9.752261418614244,1.9064183674505362,0.0
-9.741391394317112,1.940900406062221,0.0
-9.730521370019982,1.9700142332359667,0.0
-9.719651345722852,1.993645536616189,0.0
-9.708781321425722,2.011722778833945,0.0
-9.697911297128591,2.0242081920707853,0.0
-9.68704127283146,2.031089717572164,0.0
-9.676171248534333,2.032374739639674,0.0
-9.6653012242372,2.028086095680927,0.0
-9.65443119994007,2.018260485018152,0.0
-9.643561175642942,2.0029491083254523,0.0
-9.632691151345812,1.9822201764765173,0.0
-9.621821127048682,1.9561628307217835,0.0
-9.610951102751551,1.9248919899505528,0.0
-9.60008107845442,1.8885536491344714,0.0
-9.58921105415729,1.8473301638231887,0.0
-9.57834102986016,1.8014450522628012,0.0
-9.56747100556303,1.7511668330341743,0.0
-9.5566009812659,1.6968114127815292,0.0
-9.545730956968772,1.6387425738989516,0.0
-9.53486093267164,1.5773702095613278,3.36e-322
-9.523990908374511,1.513146121404337,1.07785e-319
-9.51312088407738,1.4465574205582732,3.3957863e-317
-9.50225085978025,1.378117822863671,1.0456808254e-314
-9.49138083548312,1.308357359095344,3.14726370637e-312
-9.48051081118599,1.2378111858499545,9.25853640252924e-310
-9.46964078688886,1.1670082495540486,2.6621146733579155e-307
-9.45877076259173,1.0964605134208085,7.481460650213124e-305
-9.4479007382946,1.0266533185860305,2.055044587740702e-302
-9.43703071399747,0.95803725101737,5.5173599558976354e-300
-9.42616068970034,0.8910216722425099,1.4478267771926466e-297
-9.415290665403209,0.8259698912412113,3.7134459524451295e-295
-9.40442064110608,0.7631958410324524,9.309209994906311e-293
-9.39355061680895,0.7029620892075226,2.2809920106169915e-290
-9.38268059251182,0.6454790456726063,5.4627323004001985e-288
-9.37181056821469,0.5909053024668702,1.2787077303419357e-285
-9.36094054391756,0.5393491096791987,2.9255523967210893e-283
-9.350070519620427,0.49087102162895446,6.542137820830062e-281
-9.3392004953233,0.44548771711427626,1.429903455793747e-278
-9.328330471026169,0.40317690702878084,3.0547027881781547e-276
-9.317460446729038,0.3638831140218209,6.378321791370151e-274
-9.30659042243191,0.32752397868935146,1.3017245934494223e-271
-9.29572039813478,0.2939966544849057,2.5966117255073084e-269
-9.28485037383765,0.2631838290983974,5.06255946997056e-267
-9.27398034954052,0.2349589649037761,9.647359945439831e-265
-9.263110325243389,0.209190475195206,1.7968923012001167e-262
-9.25224030094626,0.18574471862329273,3.2712281499782e-260
-9.241370276649128,0.16448786502310575,5.820695004057366e-258
-9.230500252351998,0.1452868271063845,1.0123112760640285e-255
-9.219630228054868,0.12800954052393507,1.7207925938370537e-253
-9.208760203757738,0.11252490130368979,2.8590266612081142e-251
-9.197890179460607,0.09870264126734742,4.642833466281262e-249
-9.187020155163475,0.08641335561828713,7.369249008101365e-247
-9.176150130866349,0.07552881307095197,1.143243082184007e-244
-9.165280106569218,0.06592259596054634,1.7335212044292546e-242
-9.154410082272088,0.05747104807227576,2.569182533989569e-240
-9.143540057974958,0.05005445705598234,3.721653965950505e-238
-9.132670033677828,0.04355836660795312,5.269291785309093e-236
-9.121800009380696,0.037874898769386274,7.29195087784987e-234
-9.110929985083567,0.032903965919799286,9.863032179818397e-232
-9.100059960786435,0.02855426322530966,1.3039243517516717e-229
-9.089189936489309,0.024743953928493424,1.6848823216966982e-227
-9.078319912192176,0.02140099020290085,2.127952763542339e-225
-9.067449887895048,0.018463048528802845,2.6268158383561106e-223
-9.056579863597918,0.01587709650614502,3.169366794849862e-221
-9.045709839300788,0.01359864268022031,3.7375810263757815e-219
-9.034839815003656,0.011590747516529868,4.308082049284813e-217
-9.023969790706529,0.009822888749389096,4.853472280744995e-215
-9.013099766409397,0.008269776810659796,5.34436831466042e-213
-9.002229742112267,0.006910207168966424,5.751954581581163e-211
-8.991359717815136,0.00572601926231068,6.050757641158363e-209
-8.980489693518006,0.004701210237607939,6.221273746540505e-207
-8.969619669220876,0.0038212296964237665,6.252074009151869e-205
-8.958749644923746,0.0030724619304668558,6.141071535016635e-203
-8.947879620626615,0.002441886308241826,5.895755315662357e-201
-8.937009596329485,0.0019168950085787066,5.5323544496238915e-199
-8.926139572032357,0.001485239902509049,5.0740623021150806e-197
-8.915269547735226,0.0011350764685285728,4.5485905929400765e-195
-8.904399523438096,0.0008550716073000653,3.9854114062563566e-193
-8.893529499140966,0.0006345436608367069,3.413066337703762e-191
-8.882659474843836,0.00046360649642530617,2.856877123838709e-189
-8.871789450546705,0.00033329481623611064,2.3372956890960067e-187
-8.860919426249575,0.00023565438872119297,1.8690074043495627e-185
-8.850049401952445,0.0001637879874381709,1.4607761041266618e-183
-8.839179377655315,0.0001118546861106626,1.1159161504920977e-181
-8.828309353358186,7.502604829943766e-05,8.332105238990716e-180
-8.817439329061056,4.9407096849157224e-05,6.080694855838575e-178
-8.806569304763926,3.193246385755905e-05,4.337374846788316e-176
-8.795699280466795,2.0248828860198623e-05,3.023959638037101e-174
-8.784829256169665,1.259394106419121e-05,2.0606314063127024e-172
-8.773959231872535,7.680651812310951e-06,1.3724607531069169e-170
-8.763089207575405,4.591972931627443e-06,8.934594633206717e-169
-8.752219183278275,2.6906951653347767e-06,5.684929405126137e-167
-8.741349158981144,1.5449021150605806e-06,3.535498096036706e-165
-8.730479134684014,8.690077019111088e-07,2.1490744117912254e-163
-8.719609110386884,4.788001429990255e-07,1.2768139468964575e-161
-8.708739086089754,2.583574636852862e-07,7.414452844360091e-160
-8.697869061792623,1.36507878829628e-07,4.208292592633854e-158
-8.686999037495495,7.061606693893366e-08,2.3345763671265813e-156
-8.676129013198365,3.5760401350415435e-08,1.2658597341216375e-154
-8.665258988901234,1.7725669703363705e-08,6.708701006919401e-153
-8.654388964604104,8.59917370006753e-09,3.4750947115459306e-151
-8.643518940306974,4.082448205322443e-09,1.7594228165365179e-149
-8.632648916009844,1.8965051459113205e-09,8.706611522972516e-148
-8.621778891712713,8.620239950791814e-10,4.211177010783923e-146
-8.610908867415583,3.833382438177295e-10,1.990825601678116e-144
-8.600038843118453,1.667671574329804e-10,9.198951679946899e-143
-8.589168818821324,7.097003832227154e-11,4.154501004434577e-141
-8.578298794524194,2.954258451299148e-11,1.8338964911791805e-139
-8.567428770227064,1.202834107679967e-11,7.91236298103615e-138
-8.556558745929934,4.789868189632872e-12,3.3366682458456143e-136
-8.545688721632803,1.865436689373535e-12,1.3752932438001866e-134
-8.534818697335673,7.104880275377314e-13,5.5405523004996214e-133
-8.523948673038543,2.6462690177988334e-13,2.1816560847072044e-131
-8.513078648741413,9.638185281156956e-14,8.396436663035377e-130
-8.502208624444282,3.4326139107510115e-14,3.158488163433936e-128
-8.491338600147152,1.1953871999223557e-14,1.1612855378640213e-126
-8.480468575850022,4.070360218115972e-15,4.1732492545559494e-125
-8.469598551552892,1.3551436991062213e-15,1.465835353357228e-123
-8.458728527255762,4.4111793377188826e-16,5.032359264385694e-122
-8.447858502958631,1.4038813438941995e-16,1.688626819752224e-120
-8.436988478661503,4.36820166430089e-17,5.538234565112048e-119
-8.426118454364373,1.3288089686439435e-17,1.77535271620397e-117
-8.415248430067242,3.9518613786618375e-18,5.562545989878413e-116
-8.404378405770112,1.1489799567165972e-18,1.7034848156041218e-114
-8.393508381472982,3.265785847785093e-19,5.09892507312015e-113
-8.382638357175852,9.074462083112969e-20,1.4917454827910485e-111
-8.371768332878721,2.464937717619949e-20,4.265663551642133e-110
-8.360898308581591,6.545416330107163e-21,1.1922141153912402e-108
-8.350028284284463,1.69906378278101e-21,3.25684992001083e-107
-8.339158259987332,4.311400599673874e-22,8.695951135203024e-106
-8.328288235690202,1.069446167949066e-22,2.2694066704013385e-104
-8.317418211393072,2.593147588651065e-23,5.788732633926724e-103
-8.306548187095942,6.146381388632636e-24,1.4432136264679957e-101
-8.295678162798811,1.4240729239569941e-24,3.5168492736417465e-100
-8.284808138501681,3.2252409145317936e-25,8.376313774871434e-99
-8.273938114204551,7.140132870512355e-26,1.9499712611431718e-97
-8.26306808990742,1.5451186922832434e-26,4.43689980536407e-96
-8.25219806561029,3.2683325797969e-27,9.867501902385715e-95
-8.24132804131316,6.757671838137306e-28,2.144919778763149e-93
-8.23045801701603,1.3657531199843026e-28,4.557127517507004e-92
-8.2195879927189,2.698046968309085e-29,9.463410027331586e-91
-8.20871796842177,5.209872727029048e-30,1.9207929048494527e-89
-8.197847944124641,9.833390079490763e-31,3.8105696180243426e-88
-8.18697791982751,1.8141631277598743e-31,7.388832081897648e-87
-8.17610789553038,3.2714840481889937e-32,1.400355502470482e-85
-8.16523787123325,5.766433375870737e-33,2.5940449068459615e-84
-8.15436784693612,9.934875969086888e-34,4.696706678496677e-83
-8.14349782263899,1.6730507398625483e-34,8.311630503709611e-82
-8.13262779834186,2.753887191616656e-35,1.4376591949170158e-80
-8.12175777404473,4.43070168514702e-36,2.430539497566562e-79
-8.1108877497476,6.967664627260389e-37,4.0163035915443212e-78
-8.10001772545047,1.0709999079027072e-37,6.486756543712754e-77
-8.08914770115334,1.6090823113288617e-38,1.0240142109917124e-75
-8.07827767685621,2.362941365761665e-39,1.5800171472361624e-74
-8.06740765255908,3.3916635684039104e-40,2.3828415548338228e-73
-8.05653762826195,4.758357355244049e-41,3.5124180655805915e-72
-8.04566760396482,6.525070176250031e-42,5.060518781081802e-71
-8.03479757966769,8.74574042601733e-43,7.12626254122628e-70
-8.023927555370559,1.1457522135972775e-43,9.808592185440047e-69
-8.013057531073429,1.4671247715280723e-44,1.3195619134653882e-67
-8.002187506776298,1.836221850831203e-45,1.7351269668392933e-66
-7.991317482479169,2.246283533985295e-46,2.2300330969834435e-65
-7.980447458182039,2.685869529549394e-47,2.80136756737622e-64
-7.969577433884909,3.1389600610747334e-48,3.439598958235865e-63
-7.958707409587779,3.585641411853037e-49,4.12785698297597e-62
-7.947837385290649,4.0033888940176127e-50,4.841955597115515e-61
-7.936967360993519,4.3688613244634444e-51,5.551323132279456e-60
-7.926097336696388,4.660022452843201e-52,6.220882323049519e-59
-7.915227312399258,4.858327232540736e-53,6.81377014622223e-58
-7.904357288102128,4.950673377757815e-54,7.294629527396134e-57
-7.893487263804998,4.930833205290326e-55,7.633075124372015e-56
-7.8826172395078675,4.800148355870105e-56,7.806864646862512e-55
-7.871747215210738,4.567379707565869e-57,7.804316535096826e-54
-7.860877190913608,4.247735813354095e-58,7.6256088765175145e-53
-7.850007166616478,3.8612295854878267e-59,7.282758855530248e-52
-7.839137142319348,3.430609893648905e-60,6.798286025866246e-51
-7.828267118022218,2.979164451300401e-61,6.202766018686454e-50
-7.817397093725088,2.5286860152028146e-62,5.531643868354493e-49
-7.806527069427958,2.0978406246634834e-63,4.821767620650333e-48
-7.795657045130827,1.7010892745159992e-64,4.1081095556447284e-47
-7.784787020833697,1.3482133885063055e-65,3.4210693837525757e-46
-7.773916996536567,1.044400257948595e-66,2.7846226071077136e-45
-7.763046972239437,7.907733217850322e-68,2.2154191287137968e-44
-7.752176947942307,5.852125847260814e-69,1.722784977268744e-43
-7.741306923645177,4.2330346623752365e-70,1.309460556296302e-42
-7.730436899348047,2.9927223687590663e-71,9.728379816452415e-42
-7.719566875050917,2.0680326649034001e-72,7.064411352251033e-41
-7.708696850753787,1.3967691861143416e-73,5.01417459530509e-40
-7.697826826456657,9.220789672656626e-75,3.478657057332115e-39
-7.686956802159527,5.949599629322624e-76,2.3589198715330985e-38
-7.6760867778623965,3.7521782604160654e-77,1.5635253508431176e-37
-7.665216753565266,2.3128913108318166e-78,1.0129491134137839e-36
-7.654346729268136,1.3934871695600868e-79,6.414490026587088e-36
-7.643476704971006,8.205908375498963e-81,3.9703549184770706e-35
-7.632606680673876,4.723090272332521e-82,2.402094864803914e-34
-7.621736656376746,2.6570619496940975e-83,1.420514244033831e-33
-7.610866632079616,1.4610091134060139e-84,8.211012009619458e-33
-7.5999966077824865,7.851993714640547e-86,4.639215405881207e-32
-7.589126583485356,4.124608192290589e-87,2.5620659579425583e-31
-7.578256559188226,2.117684034178878e-88,1.3830415200449788e-30
-7.567386534891096,1.0627113023052857e-89,7.297608658032846e-30
-7.556516510593966,5.21248817278111e-91,3.7638103434187714e-29
-7.545646486296835,2.498909249799713e-92,1.8974841192105179e-28
-7.534776461999705,1.170931475491982e-93,9.350468178998282e-28
-7.523906437702575,5.3627561051231696e-95,4.503964637666838e-27
-7.513036413405445,2.4006019766193856e-96,2.1206290742803674e-26
-7.502166389108315,1.0503349082737525e-97,9.759878051946021e-26
-7.491296364811185,4.491702123245146e-99,4.390721963511408e-25
-7.480426340514056,1.8774552069346632e-100,1.9308182256068916e-24
-7.469556316216925,7.670147100507721e-102,8.299709954023584e-24
-7.458686291919795,3.062762054337464e-103,3.4874084434518844e-23
-7.447816267622665,1.1953587459518019e-104,1.4323974231170285e-22
-7.436946243325535,4.559935459881279e-106,5.751056891961937e-22
-7.426076219028404,1.7001785853299375e-107,2.2571373114907007e-21
-7.415206194731274,6.195919815297534e-109,8.659591933160509e-21
-7.404336170434144,2.2069496499336386e-110,3.2476494835807724e-20
-7.393466146137015,7.683417636441263e-112,1.1906291353882176e-19
-7.382596121839884,2.614519127857099e-113,4.267004332346091e-19
-7.371726097542754,8.695700346112911e-115,1.4949020112577075e-18
-7.360856073245625,2.826784213888265e-116,5.1197593920589775e-18
-7.3499860489484945,8.98164923707597e-118,1.7141072050267582e-17
-7.339116024651364,2.789297624079065e-119,5.610257135331502e-17
-7.328246000354234,8.466598188364e-121,1.795101582258305e-16
-7.317375976057104,2.511876950243733e-122,5.615162026694633e-16
-7.306505951759973,7.2838850700544635e-124,1.7171511496820939e-15
-7.295635927462843,2.0644440383395848e-125,5.133743822579152e-15
-7.284765903165713,5.718978259060153e-127,1.5005356402284797e-14
-7.273895878868584,1.5484923762565227e-128,4.287977757017508e-14
-7.263025854571453,4.098028624602564e-130,1.1980119274805934e-13
-7.252155830274323,1.0600251980406949e-131,3.2725121271544656e-13
-7.241285805977194,2.6799869018633765e-133,8.740229915835431e-13
-7.230415781680064,6.622537567784463e-135,2.2824268422173955e-12
-7.219545757382933,1.5995265845521412e-136,5.827943721376093e-12
-7.208675733085803,3.7760154593929904e-138,1.4550959249326851e-11
-7.197805708788673,8.712671312284435e-140,3.55255200276706e-11
-7.186935684491543,1.964916772181198e-141,8.481607994351929e-11
-7.176065660194412,4.33123999134488e-143,1.9802642255969015e-10
-7.165195635897282,9.331588808883735e-145,4.521636933976025e-10
-7.154325611600153,1.965052657731642e-146,1.0097612679242727e-09
-7.143455587303023,4.044529832905961e-148,2.2055551452259578e-09
-7.132585563005892,8.136490892284753e-150,4.712184924310797e-09
-7.121715538708763,1.5998581900706536e-151,9.848378215004781e-09
-7.110845514411633,3.0746881912447034e-153,2.0136421669157482e-08
-7.099975490114503,5.775584120041819e-155,4.02825877290412e-08
-7.089105465817372,1.0603908908249436e-156,7.885298603735104e-08
-7.078235441520242,1.9028795648090226e-158,1.5105662223552265e-07
-7.067365417223112,3.3375813019719893e-160,2.832339944287784e-07
-7.0564953929259815,5.721733703110536e-162,5.198851639458926e-07
-7.045625368628851,9.587351796307078e-164,9.343491267471334e-07
-7.034755344331722,1.5701636505383305e-165,1.644547687071115e-06
-7.023885320034592,2.513427756777154e-167,2.8354996385067717e-06
-7.013015295737461,3.9324492398484946e-169,4.790552041223106e-06
-7.002145271440332,6.013607430280766e-171,7.933420865752944e-06
-6.991275247143202,8.988397101300942e-173,1.2883155972527305e-05
-6.980405222846072,1.313120725320571e-174,2.0524059276918266e-05
-6.969535198548941,1.8750043853432213e-176,3.209247194208834e-05
-6.958665174251811,2.616827804775e-178,4.9282375805371855e-05
-6.947795149954681,3.569630212954409e-180,7.43721817086922e-05
-6.936925125657551,4.759337864043618e-182,0.0001103762112304614
-6.92605510136042,6.202190017448804e-184,0.0001612265051176581
-6.915185077063291,7.899849580648574e-186,0.0002319938672568621
